time(s) shearinDisp topPlateVerticalDisp forwardSphereForce(N) rearSphereForce(N) totalShearForce(N) shearStress(kPa) numManifolds numContacts averageCoordinationNum
0.000000 0.000000 0.000000 11.060232 0.000000 11.060232 3.072287 15613 12157 11.240870
0.110000 0.011000 0.002018 467.129852 0.000000 467.129852 129.782089 15566 12110 11.197411
0.210000 0.021000 0.006943 350.246521 0.000000 350.246521 97.324768 15550 12094 11.182617
0.310000 0.031000 0.010548 390.277100 0.000000 390.277100 108.466354 15548 12092 11.180767
0.410000 0.041000 0.014168 259.730865 0.000000 259.730865 72.196800 15559 12103 11.190939
0.500000 0.050000 0.017654 391.851318 0.000000 391.851318 108.938377 15569 12113 11.200185
0.610000 0.061000 0.022049 431.744049 0.000000 431.744049 120.050949 15564 12107 11.194637
0.700000 0.070000 0.025620 330.976898 0.000000 330.976898 92.045418 15569 12076 11.165973
0.810000 0.081000 0.029613 326.290192 0.000000 326.290192 90.758698 15557 11810 10.920018
0.900000 0.090000 0.033157 289.863953 0.000000 289.863953 80.638725 15566 11835 10.943134
1.000000 0.100000 0.036774 336.739563 0.000000 336.739563 93.694931 15582 11807 10.917245
1.100000 0.110000 0.040535 339.138458 0.000000 339.138458 94.378151 15578 11783 10.895053
1.210000 0.121000 0.044380 306.432098 0.000000 306.432098 85.292030 15576 11773 10.885807
1.310000 0.131000 0.047932 376.326477 0.000000 376.326477 104.763878 15569 11846 10.953305
1.400000 0.140000 0.051109 341.690704 0.000000 341.690704 95.136063 15575 11821 10.930189
1.500000 0.150000 0.054668 307.927490 0.000000 307.927490 85.749794 15577 11767 10.880259
1.610000 0.161000 0.058453 320.115570 0.000000 320.115570 89.160240 15379 11696 10.814610
1.710000 0.171000 0.061829 287.694763 0.000000 287.694763 80.143623 15375 11830 10.938511
1.800000 0.180000 0.064930 309.193329 0.000000 309.193329 86.145477 15382 11856 10.962552
1.900000 0.190000 0.068264 310.938324 0.000000 310.938324 86.646133 15354 11809 10.919094
2.000000 0.200000 0.071564 298.485687 0.000000 298.485687 83.189995 15352 11779 10.891355
2.110000 0.211000 0.074875 266.492767 0.000000 266.492767 74.287010 15357 11759 10.872862
2.200000 0.220000 0.077690 323.375031 0.000000 323.375031 90.156975 15344 11843 10.950532
2.300000 0.230000 0.080914 292.964630 0.000000 292.964630 81.692223 15352 11838 10.945909
2.410000 0.241000 0.084301 286.204773 0.000000 286.204773 79.821945 15353 11751 10.865464
2.500000 0.250000 0.087021 285.651123 0.000000 285.651123 79.679535 15356 11708 10.825705
2.610000 0.261000 0.090218 276.361053 0.000000 276.361053 77.102356 15352 11807 10.917245
2.700000 0.270000 0.092945 277.719910 0.000000 277.719910 77.493134 15359 11838 10.945909
2.800000 0.280000 0.095940 281.758636 0.000000 281.758636 78.633240 15359 11831 10.939436
2.910000 0.291000 0.099182 271.588837 0.000000 271.588837 75.809013 15352 11795 10.906149
3.000000 0.300000 0.101727 274.509827 0.000000 274.509827 76.635910 15360 11749 10.863615
3.110000 0.311000 0.104607 282.181091 0.000000 282.181091 78.792038 15357 11804 10.914471
3.210000 0.321000 0.107342 266.853729 0.000000 266.853729 74.524742 15357 11837 10.944983
3.300000 0.330000 0.109833 256.229919 0.000000 256.229919 71.568611 15353 11776 10.888580
3.410000 0.341000 0.112740 258.448120 0.000000 258.448120 72.201492 15355 11711 10.828479
3.500000 0.350000 0.115017 255.217987 0.000000 255.217987 71.309860 15362 11736 10.851595
3.600000 0.360000 0.117626 247.155914 0.000000 247.155914 69.068840 15352 11820 10.929265
3.710000 0.371000 0.120491 249.364365 0.000000 249.364365 69.698853 15356 11829 10.937587
3.800000 0.380000 0.122757 267.675751 0.000000 267.675751 74.828293 15351 11796 10.907074
3.910000 0.391000 0.125328 229.228928 0.000000 229.228928 64.092369 15360 11768 10.881184
4.000000 0.400000 0.127502 264.102478 0.000000 264.102478 73.854164 15351 11814 10.923717
4.100000 0.410000 0.129887 232.708679 0.000000 232.708679 65.086060 15363 11839 10.946833
4.210000 0.421000 0.132484 244.918854 0.000000 244.918854 68.513756 15357 11800 10.910772
4.310000 0.431000 0.134834 228.300629 0.000000 228.300629 63.875683 15361 11757 10.871013
4.400000 0.440000 0.136890 241.196228 0.000000 241.196228 67.493904 15357 11707 10.824780
4.500000 0.450000 0.138950 240.940079 0.000000 240.940079 67.433556 15357 11808 10.918169
4.600000 0.460000 0.141109 208.663498 0.000000 208.663498 58.409893 15359 11821 10.930189
4.710000 0.471000 0.143494 227.613785 0.000000 227.613785 63.726303 15361 11788 10.899676
4.810000 0.481000 0.145374 197.422470 0.000000 197.422470 55.282761 15362 11783 10.895053
4.900000 0.490000 0.147186 214.723206 0.000000 214.723206 60.136448 15353 11822 10.931114
5.000000 0.500000 0.149231 213.086807 0.000000 213.086807 59.688183 15357 11851 10.957929
5.100000 0.510000 0.151299 208.405029 0.000000 208.405029 58.386570 15361 11848 10.955154
5.210000 0.521000 0.153496 208.390381 0.000000 208.390381 58.393265 15356 11792 10.903375
5.310000 0.531000 0.155407 200.449020 0.000000 200.449020 56.177452 15356 11739 10.854369
5.400000 0.540000 0.157032 208.369308 0.000000 208.369308 58.406017 15362 11724 10.840499
5.500000 0.550000 0.158730 185.449203 0.000000 185.449203 51.990246 15360 11837 10.944983
5.600000 0.560000 0.160427 201.184677 0.000000 201.184677 56.411140 15362 11804 10.914471
5.710000 0.571000 0.162243 182.632339 0.000000 182.632339 51.218636 15364 11770 10.883033
5.810000 0.581000 0.163849 181.407715 0.000000 181.407715 50.883759 15370 11766 10.879334
5.900000 0.590000 0.165230 194.461929 0.000000 194.461929 54.553646 15351 11804 10.914471
6.000000 0.600000 0.166870 197.624939 0.000000 197.624939 55.450321 15334 11797 10.907998
6.100000 0.610000 0.168404 192.372803 0.000000 192.372803 53.985748 15355 11782 10.894129
6.210000 0.621000 0.170010 188.692566 0.000000 188.692566 52.962769 15357 11732 10.847897
6.310000 0.631000 0.171391 191.354065 0.000000 191.354065 53.718853 15360 11726 10.842349
6.410000 0.641000 0.172745 177.197144 0.000000 177.197144 49.752953 15358 11791 10.902451
6.500000 0.650000 0.174015 147.611725 0.000000 147.611725 41.452324 15367 11812 10.921867
6.600000 0.660000 0.175308 192.066711 0.000000 192.066711 53.945267 15359 11763 10.876560
6.700000 0.670000 0.176693 164.952377 0.000000 164.952377 46.337540 15368 11763 10.876560
6.810000 0.681000 0.177994 163.993835 0.000000 163.993835 46.076817 15366 11814 10.923717
6.910000 0.691000 0.179356 168.124847 0.000000 168.124847 47.245457 15363 11828 10.936662
7.000000 0.700000 0.180420 166.470444 0.000000 166.470444 46.787647 15358 11789 10.900601
7.100000 0.710000 0.181602 157.369324 0.000000 157.369324 44.237179 15359 11763 10.876560
7.200000 0.720000 0.182701 169.995132 0.000000 169.995132 47.794403 15359 11715 10.832177
7.310000 0.731000 0.183773 153.258408 0.000000 153.258408 43.096844 15359 11806 10.916320
7.410000 0.741000 0.184860 129.640732 0.000000 129.640732 36.461617 15364 11816 10.925567
7.500000 0.750000 0.185760 144.779388 0.000000 144.779388 40.725567 15361 11779 10.891355
7.600000 0.760000 0.186775 154.945679 0.000000 154.945679 43.592640 15359 11762 10.875636
7.700000 0.770000 0.187649 122.056000 0.000000 122.056000 34.345211 15359 11745 10.859917
7.810000 0.781000 0.188622 163.550430 0.000000 163.550430 46.029831 15358 11814 10.923717
7.910000 0.791000 0.189510 122.240524 0.000000 122.240524 34.409328 15351 11792 10.903375
